#id, computer time,time, calib_status, rot_vec,,,, 					lin_acc,,, 						grav
0, 1594829049.0212836, 0.0, 0000, 0.71875, 0.02576, -0.69452, -0.01953, -0.310000, -0.060000, -0.020000, 9.78000, 0.62000, 0.33000
1, 1594829049.0312178, 10.11719, 0000, 0.71875, 0.02582, -0.69452, -0.01959, -0.300000, -0.060000, -0.050000, 9.78000, 0.63000, 0.33000
2, 1594829049.0405953, 19.88281, 0000, 0.71875, 0.02594, -0.69452, -0.01959, -0.280000, -0.030000, -0.080000, 9.78000, 0.63000, 0.33000
3, 1594829049.0511665, 29.85157, 0000, 0.71875, 0.02606, -0.69452, -0.01959, -0.240000, 0.010000, -0.090000, 9.78000, 0.63000, 0.33000
4, 1594829049.0611818, 39.85157, 0000, 0.71869, 0.02618, -0.69452, -0.01959, -0.190000, 0.000000, -0.140000, 9.78000, 0.63000, 0.33000
5, 1594829049.0713027, 49.82031, 0000, 0.71869, 0.02618, -0.69452, -0.01959, -0.200000, 0.020000, -0.080000, 9.78000, 0.63000, 0.33000
6, 1594829049.083165, 60.4375, 0000, 0.71869, 0.02612, -0.69452, -0.01965, -0.180000, 0.010000, -0.050000, 9.78000, 0.63000, 0.33000
7, 1594829049.0910995, 69.77344, 0000, 0.71869, 0.02612, -0.69452, -0.01965, -0.180000, 0.010000, -0.050000, 9.78000, 0.63000, 0.33000
8, 1594829049.1010704, 79.6875, 0000, 0.71869, 0.02600, -0.69458, -0.01971, -0.280000, 0.000000, -0.030000, 9.78000, 0.63000, 0.33000
9, 1594829049.1111863, 89.72657, 0000, 0.71869, 0.02563, -0.69458, -0.02002, -0.310000, -0.090000, -0.070000, 9.78000, 0.63000, 0.33000
10, 1594829049.1209807, 99.70313, 0000, 0.71869, 0.02551, -0.69458, -0.02014, -0.260000, -0.150000, -0.030000, 9.78000, 0.63000, 0.33000
11, 1594829049.1349785, 109.86719, 0000, 0.71869, 0.02533, -0.69458, -0.02026, -0.170000, -0.180000, -0.060000, 9.78000, 0.63000, 0.33000
12, 1594829049.140926, 119.67969, 0000, 0.71869, 0.02533, -0.69458, -0.02032, -0.160000, -0.150000, -0.050000, 9.78000, 0.63000, 0.33000
13, 1594829049.1509016, 129.67969, 0000, 0.71869, 0.02527, -0.69458, -0.02026, -0.190000, -0.170000, -0.070000, 9.78000, 0.63000, 0.33000
14, 1594829049.1612298, 139.88281, 0000, 0.71869, 0.02521, -0.69458, -0.02026, -0.170000, -0.180000, -0.080000, 9.78000, 0.63000, 0.33000
15, 1594829049.1708822, 149.67969, 0000, 0.71869, 0.02527, -0.69458, -0.02020, -0.170000, -0.160000, -0.010000, 9.78000, 0.63000, 0.33000
16, 1594829049.183955, 161.61719, 0000, 0.71869, 0.02527, -0.69458, -0.02008, -0.230000, -0.080000, 0.000000, 9.78000, 0.63000, 0.33000
17, 1594829049.190987, 169.69531, 0000, 0.71863, 0.02539, -0.69464, -0.02002, -0.270000, -0.060000, 0.000000, 9.78000, 0.63000, 0.33000
18, 1594829049.201761, 179.6875, 0000, 0.71863, 0.02545, -0.69464, -0.01996, -0.280000, -0.040000, 0.010000, 9.78000, 0.63000, 0.33000
19, 1594829049.2111042, 189.67969, 0000, 0.71863, 0.02545, -0.69464, -0.01990, -0.270000, -0.040000, 0.000000, 9.78000, 0.63000, 0.33000
20, 1594829049.2210588, 199.67188, 0000, 0.71863, 0.02545, -0.69464, -0.01990, -0.230000, -0.070000, 0.000000, 9.78000, 0.63000, 0.33000
21, 1594829049.2310808, 209.6875, 0000, 0.71863, 0.02545, -0.69464, -0.01990, -0.230000, -0.080000, -0.050000, 9.78000, 0.63000, 0.33000
22, 1594829049.2409363, 219.67188, 0000, 0.71863, 0.02551, -0.69464, -0.01996, -0.220000, -0.090000, -0.020000, 9.78000, 0.63000, 0.33000
23, 1594829049.2498226, 229.6875, 0000, 0.71863, 0.02557, -0.69464, -0.01996, -0.190000, -0.100000, -0.050000, 9.78000, 0.63000, 0.33000
24, 1594829049.2638197, 239.86719, 0000, 0.71863, 0.02563, -0.69464, -0.01990, -0.190000, -0.030000, -0.100000, 9.78000, 0.63000, 0.33000
25, 1594829049.2707283, 249.67969, 0000, 0.71863, 0.02570, -0.69464, -0.01984, -0.200000, -0.020000, -0.060000, 9.78000, 0.63000, 0.32000
26, 1594829049.281549, 259.71094, 0000, 0.71863, 0.02563, -0.69464, -0.01978, -0.240000, 0.030000, -0.050000, 9.78000, 0.63000, 0.32000
27, 1594829049.2906718, 269.78125, 0000, 0.71869, 0.02557, -0.69458, -0.01971, -0.250000, 0.030000, -0.070000, 9.78000, 0.62000, 0.33000
28, 1594829049.3027022, 279.69531, 0000, 0.71869, 0.02551, -0.69458, -0.01971, -0.290000, 0.000000, -0.060000, 9.78000, 0.62000, 0.33000
29, 1594829049.3116648, 289.69531, 0000, 0.71869, 0.02539, -0.69458, -0.01965, -0.260000, 0.020000, -0.080000, 9.78000, 0.62000, 0.33000
30, 1594829049.324633, 299.6875, 0000, 0.71869, 0.02527, -0.69458, -0.01971, -0.250000, 0.040000, -0.060000, 9.78000, 0.62000, 0.33000
31, 1594829049.3316221, 309.70313, 0000, 0.71869, 0.02521, -0.69464, -0.01971, -0.240000, 0.030000, -0.070000, 9.78000, 0.62000, 0.33000
32, 1594829049.341422, 319.67969, 0000, 0.71869, 0.02515, -0.69464, -0.01978, -0.210000, 0.000000, -0.020000, 9.78000, 0.62000, 0.33000
33, 1594829049.3523805, 329.6875, 0000, 0.71869, 0.02509, -0.69464, -0.01990, -0.210000, 0.050000, -0.030000, 9.78000, 0.62000, 0.33000
34, 1594829049.3615422, 339.88281, 0000, 0.71869, 0.02490, -0.69464, -0.01996, -0.220000, 0.010000, -0.060000, 9.78000, 0.62000, 0.33000
35, 1594829049.3743377, 349.6875, 0000, 0.71869, 0.02472, -0.69464, -0.02014, -0.220000, -0.040000, -0.040000, 9.78000, 0.62000, 0.33000
36, 1594829049.3842747, 359.88281, 0000, 0.71869, 0.02454, -0.69464, -0.02032, -0.190000, -0.070000, -0.090000, 9.78000, 0.62000, 0.33000
37, 1594829049.392254, 369.79688, 0000, 0.71869, 0.02441, -0.69464, -0.02045, -0.240000, -0.130000, -0.030000, 9.78000, 0.62000, 0.33000
38, 1594829049.4012299, 379.6875, 0000, 0.71869, 0.02423, -0.69464, -0.02057, -0.270000, -0.160000, -0.090000, 9.78000, 0.62000, 0.33000
39, 1594829049.4141972, 389.67969, 0000, 0.71863, 0.02411, -0.69464, -0.02063, -0.290000, -0.150000, -0.110000, 9.78000, 0.62000, 0.33000
40, 1594829049.422176, 399.69531, 0000, 0.71863, 0.02411, -0.69464, -0.02063, -0.270000, -0.110000, -0.070000, 9.78000, 0.62000, 0.33000
41, 1594829049.4341419, 409.69531, 0000, 0.71863, 0.02411, -0.69464, -0.02057, -0.260000, -0.010000, -0.080000, 9.78000, 0.62000, 0.33000
42, 1594829049.4403198, 419.67969, 0000, 0.71863, 0.02417, -0.69470, -0.02051, -0.250000, 0.050000, -0.070000, 9.78000, 0.62000, 0.33000
43, 1594829049.4511402, 429.67969, 0000, 0.71863, 0.02417, -0.69470, -0.02051, -0.250000, 0.080000, -0.050000, 9.78000, 0.62000, 0.33000
44, 1594829049.462266, 439.91407, 0000, 0.71863, 0.02423, -0.69470, -0.02051, -0.230000, 0.080000, -0.080000, 9.78000, 0.62000, 0.32000
45, 1594829049.4711363, 449.6875, 0000, 0.71863, 0.02411, -0.69470, -0.02063, -0.260000, 0.000000, -0.050000, 9.78000, 0.62000, 0.32000
46, 1594829049.4812217, 459.6875, 0000, 0.71863, 0.02399, -0.69470, -0.02075, -0.240000, -0.020000, -0.020000, 9.78000, 0.62000, 0.33000
47, 1594829049.4919908, 469.85938, 0000, 0.71863, 0.02386, -0.69470, -0.02087, -0.230000, -0.080000, -0.070000, 9.78000, 0.62000, 0.33000
48, 1594829049.5021627, 479.6875, 0000, 0.71863, 0.02374, -0.69470, -0.02100, -0.220000, -0.140000, -0.030000, 9.78000, 0.62000, 0.33000
49, 1594829049.511118, 489.69531, 0000, 0.71863, 0.02362, -0.69470, -0.02112, -0.250000, -0.110000, -0.030000, 9.78000, 0.62000, 0.33000
50, 1594829049.5248997, 499.6875, 0000, 0.71863, 0.02356, -0.69470, -0.02118, -0.250000, -0.090000, -0.050000, 9.78000, 0.62000, 0.33000
51, 1594829049.5298898, 509.6875, 0000, 0.71863, 0.02344, -0.69470, -0.02124, -0.240000, -0.060000, -0.040000, 9.78000, 0.62000, 0.33000
52, 1594829049.539859, 519.67969, 0000, 0.71863, 0.02338, -0.69470, -0.02130, -0.240000, -0.050000, -0.060000, 9.78000, 0.62000, 0.33000
53, 1594829049.5509224, 529.67969, 0000, 0.71863, 0.02332, -0.69470, -0.02142, -0.250000, -0.020000, -0.110000, 9.78000, 0.61000, 0.33000
54, 1594829049.5608373, 539.875, 0000, 0.71857, 0.02319, -0.69476, -0.02148, -0.170000, -0.040000, -0.190000, 9.78000, 0.61000, 0.32000
55, 1594829049.5709074, 549.67969, 0000, 0.71851, 0.02313, -0.69476, -0.02155, -0.130000, -0.070000, -0.180000, 9.78000, 0.61000, 0.32000
56, 1594829049.5888925, 559.69531, 0000, 0.71851, 0.02301, -0.69482, -0.02161, -0.100000, -0.110000, -0.160000, 9.78000, 0.61000, 0.32000
57, 1594829049.5938735, 571.875, 0000, 0.71844, 0.02295, -0.69489, -0.02161, -0.130000, -0.160000, -0.140000, 9.78000, 0.61000, 0.32000
58, 1594829049.600912, 579.69531, 0000, 0.71844, 0.02289, -0.69489, -0.02155, -0.180000, -0.010000, -0.020000, 9.78000, 0.61000, 0.32000
59, 1594829049.6106694, 589.67969, 0000, 0.71844, 0.02289, -0.69489, -0.02155, -0.300000, -0.010000, -0.040000, 9.78000, 0.61000, 0.32000
60, 1594829049.6216376, 599.6875, 0000, 0.71844, 0.02283, -0.69489, -0.02155, -0.320000, -0.090000, 0.010000, 9.78000, 0.61000, 0.32000
61, 1594829049.6308422, 609.67969, 0000, 0.71844, 0.02277, -0.69489, -0.02155, -0.310000, -0.120000, 0.000000, 9.78000, 0.61000, 0.32000
62, 1594829049.64081, 619.6875, 0000, 0.71844, 0.02277, -0.69489, -0.02161, -0.270000, -0.150000, 0.010000, 9.78000, 0.61000, 0.32000
63, 1594829049.6507673, 629.67969, 0000, 0.71844, 0.02271, -0.69489, -0.02161, -0.280000, -0.070000, -0.010000, 9.78000, 0.61000, 0.32000
64, 1594829049.6615329, 639.88281, 0000, 0.71844, 0.02271, -0.69489, -0.02161, -0.300000, -0.050000, -0.060000, 9.78000, 0.61000, 0.32000
65, 1594829049.6707385, 649.67969, 0000, 0.71844, 0.02271, -0.69489, -0.02161, -0.290000, -0.010000, -0.110000, 9.78000, 0.61000, 0.32000
66, 1594829049.6807022, 659.6875, 0000, 0.71844, 0.02277, -0.69489, -0.02161, -0.250000, -0.020000, -0.180000, 9.78000, 0.61000, 0.32000
67, 1594829049.6906846, 669.67188, 0000, 0.71838, 0.02271, -0.69495, -0.02167, -0.180000, -0.050000, -0.150000, 9.78000, 0.61000, 0.32000
68, 1594829049.7015781, 679.78125, 0000, 0.71838, 0.02264, -0.69495, -0.02173, -0.180000, -0.070000, -0.220000, 9.78000, 0.61000, 0.32000
69, 1594829049.7116103, 689.69531, 0000, 0.71832, 0.02258, -0.69501, -0.02179, -0.220000, -0.030000, -0.170000, 9.78000, 0.61000, 0.32000
70, 1594829049.7205622, 699.6875, 0000, 0.71832, 0.02252, -0.69501, -0.02179, -0.220000, -0.020000, -0.120000, 9.78000, 0.61000, 0.32000
71, 1594829049.734501, 709.6875, 0000, 0.71832, 0.02252, -0.69501, -0.02179, -0.260000, -0.040000, -0.040000, 9.78000, 0.61000, 0.32000
72, 1594829049.7413213, 719.69531, 0000, 0.71832, 0.02246, -0.69501, -0.02185, -0.280000, -0.050000, 0.000000, 9.78000, 0.61000, 0.32000
73, 1594829049.7502937, 729.6875, 0000, 0.71832, 0.02240, -0.69501, -0.02191, -0.260000, -0.060000, 0.030000, 9.78000, 0.61000, 0.32000
74, 1594829049.7612658, 739.875, 0000, 0.71832, 0.02234, -0.69501, -0.02203, -0.220000, -0.070000, -0.010000, 9.78000, 0.61000, 0.32000
75, 1594829049.7702422, 749.6875, 0000, 0.71832, 0.02228, -0.69501, -0.02209, -0.210000, -0.100000, -0.080000, 9.78000, 0.61000, 0.32000
76, 1594829049.7822084, 759.6875, 0000, 0.71832, 0.02222, -0.69501, -0.02216, -0.220000, -0.070000, -0.090000, 9.78000, 0.61000, 0.32000
77, 1594829049.7932172, 769.69531, 0000, 0.71832, 0.02216, -0.69501, -0.02216, -0.230000, -0.030000, -0.110000, 9.78000, 0.61000, 0.32000
78, 1594829049.8012, 779.79688, 0000, 0.71832, 0.02209, -0.69501, -0.02222, -0.260000, -0.040000, -0.130000, 9.78000, 0.61000, 0.32000
79, 1594829049.8101683, 789.6875, 0000, 0.71832, 0.02203, -0.69501, -0.02234, -0.290000, -0.030000, -0.170000, 9.78000, 0.61000, 0.32000
80, 1594829049.8211038, 799.67969, 0000, 0.71832, 0.02191, -0.69501, -0.02240, -0.270000, -0.110000, -0.140000, 9.78000, 0.61000, 0.32000
81, 1594829049.8314462, 809.6875, 0000, 0.71832, 0.02179, -0.69501, -0.02252, -0.220000, -0.160000, -0.120000, 9.78000, 0.61000, 0.32000
82, 1594829049.8400533, 819.6875, 0000, 0.71832, 0.02173, -0.69501, -0.02258, -0.200000, -0.200000, -0.080000, 9.78000, 0.61000, 0.32000
83, 1594829049.8500268, 829.67969, 0000, 0.71832, 0.02173, -0.69501, -0.02258, -0.230000, -0.220000, -0.040000, 9.78000, 0.61000, 0.32000
84, 1594829049.8609977, 839.875, 0000, 0.71832, 0.02179, -0.69501, -0.02252, -0.240000, -0.070000, -0.070000, 9.78000, 0.61000, 0.32000
85, 1594829049.8700113, 849.67969, 0000, 0.71832, 0.02191, -0.69501, -0.02240, -0.230000, 0.000000, -0.030000, 9.78000, 0.61000, 0.32000
86, 1594829049.8809433, 859.69531, 0000, 0.71832, 0.02203, -0.69501, -0.02234, -0.170000, 0.040000, -0.030000, 9.78000, 0.61000, 0.32000
87, 1594829049.890917, 869.67969, 0000, 0.71832, 0.02203, -0.69501, -0.02234, -0.160000, 0.010000, -0.030000, 9.78000, 0.61000, 0.32000
88, 1594829049.9019136, 879.79688, 0000, 0.71832, 0.02203, -0.69501, -0.02234, -0.210000, -0.010000, -0.050000, 9.78000, 0.61000, 0.32000
89, 1594829049.9108646, 889.6875, 0000, 0.71832, 0.02203, -0.69501, -0.02234, -0.260000, -0.010000, -0.080000, 9.78000, 0.61000, 0.32000
90, 1594829049.9208367, 899.69531, 0000, 0.71832, 0.02203, -0.69501, -0.02234, -0.280000, -0.020000, -0.080000, 9.78000, 0.61000, 0.32000
91, 1594829049.9400852, 909.69531, 0000, 0.71832, 0.02203, -0.69501, -0.02234, -0.250000, -0.040000, -0.070000, 9.78000, 0.61000, 0.32000
92, 1594829049.9417856, 919.67969, 0000, 0.71832, 0.02209, -0.69501, -0.02240, -0.230000, -0.070000, -0.070000, 9.78000, 0.61000, 0.32000
93, 1594829049.9510899, 929.67969, 0000, 0.71832, 0.02209, -0.69501, -0.02252, -0.270000, -0.110000, -0.110000, 9.78000, 0.61000, 0.32000
94, 1594829049.9617293, 940.28907, 0000, 0.71832, 0.02216, -0.69501, -0.02264, -0.280000, -0.140000, -0.150000, 9.78000, 0.62000, 0.32000
95, 1594829049.9720342, 949.6875, 0000, 0.71832, 0.02216, -0.69501, -0.02271, -0.270000, -0.150000, -0.130000, 9.78000, 0.62000, 0.32000
96, 1594829049.9810035, 959.6875, 0000, 0.71832, 0.02222, -0.69501, -0.02277, -0.240000, -0.180000, -0.080000, 9.78000, 0.62000, 0.32000
97, 1594829049.9909718, 969.67969, 0000, 0.71832, 0.02228, -0.69501, -0.02283, -0.180000, -0.160000, -0.090000, 9.78000, 0.62000, 0.32000
98, 1594829050.0037696, 981.61719, 0000, 0.71832, 0.02228, -0.69501, -0.02283, -0.180000, -0.120000, -0.080000, 9.78000, 0.62000, 0.32000
99, 1594829050.0099745, 989.69531, 0000, 0.71832, 0.02228, -0.69501, -0.02283, -0.190000, -0.130000, -0.080000, 9.78000, 0.62000, 0.32000
100, 1594829050.0208254, 999.69531, 0000, 0.71832, 0.02222, -0.69501, -0.02289, -0.210000, -0.140000, -0.070000, 9.78000, 0.62000, 0.32000
101, 1594829050.030842, 1009.6875, 0000, 0.71832, 0.02216, -0.69495, -0.02295, -0.210000, -0.200000, -0.090000, 9.78000, 0.62000, 0.32000
102, 1594829050.0405178, 1019.72657, 0000, 0.71832, 0.02209, -0.69495, -0.02301, -0.200000, -0.190000, -0.090000, 9.78000, 0.62000, 0.32000
103, 1594829050.0494933, 1029.6875, 0000, 0.71832, 0.02203, -0.69495, -0.02301, -0.220000, -0.170000, -0.110000, 9.78000, 0.62000, 0.32000
104, 1594829050.0615268, 1039.88281, 0000, 0.71832, 0.02203, -0.69495, -0.02301, -0.280000, -0.120000, -0.130000, 9.78000, 0.62000, 0.32000
105, 1594829050.0707707, 1049.6875, 0000, 0.71832, 0.02203, -0.69495, -0.02301, -0.260000, -0.100000, -0.110000, 9.78000, 0.62000, 0.32000
106, 1594829050.0807834, 1059.67969, 0000, 0.71832, 0.02203, -0.69495, -0.02301, -0.210000, -0.100000, -0.140000, 9.78000, 0.62000, 0.32000
107, 1594829050.0915825, 1069.67969, 0000, 0.71832, 0.02203, -0.69495, -0.02301, -0.180000, -0.090000, -0.130000, 9.78000, 0.62000, 0.32000
108, 1594829050.1027124, 1079.70313, 0000, 0.71832, 0.02197, -0.69495, -0.02301, -0.200000, -0.020000, -0.080000, 9.78000, 0.62000, 0.32000
109, 1594829050.1116705, 1089.79688, 0000, 0.71832, 0.02191, -0.69495, -0.02295, -0.240000, 0.010000, -0.120000, 9.78000, 0.62000, 0.32000
110, 1594829050.1252918, 1099.6875, 0000, 0.71832, 0.02191, -0.69501, -0.02289, -0.260000, -0.030000, -0.070000, 9.78000, 0.62000, 0.32000
111, 1594829050.1316123, 1109.6875, 0000, 0.71832, 0.02191, -0.69501, -0.02289, -0.240000, -0.010000, -0.070000, 9.78000, 0.62000, 0.32000
112, 1594829050.1442413, 1119.67969, 0000, 0.71832, 0.02191, -0.69501, -0.02289, -0.260000, -0.020000, -0.070000, 9.78000, 0.62000, 0.32000
113, 1594829050.1514807, 1129.69531, 0000, 0.71832, 0.02191, -0.69501, -0.02289, -0.270000, -0.030000, -0.070000, 9.78000, 0.62000, 0.32000
114, 1594829050.1614244, 1139.88281, 0000, 0.71832, 0.02191, -0.69501, -0.02289, -0.250000, 0.000000, -0.070000, 9.78000, 0.62000, 0.32000
115, 1594829050.172168, 1149.67969, 0000, 0.71832, 0.02191, -0.69501, -0.02289, -0.260000, -0.010000, -0.080000, 9.78000, 0.62000, 0.32000
116, 1594829050.1811776, 1159.6875, 0000, 0.71832, 0.02191, -0.69501, -0.02289, -0.240000, -0.060000, -0.050000, 9.78000, 0.62000, 0.32000
117, 1594829050.1923246, 1169.67969, 0000, 0.71832, 0.02191, -0.69501, -0.02289, -0.240000, -0.070000, -0.090000, 9.78000, 0.62000, 0.32000
118, 1594829050.20722, 1179.6875, 0000, 0.71832, 0.02191, -0.69501, -0.02289, -0.260000, -0.060000, -0.100000, 9.78000, 0.62000, 0.32000
119, 1594829050.212104, 1189.8125, 0000, 0.71832, 0.02191, -0.69501, -0.02289, -0.260000, -0.020000, -0.150000, 9.78000, 0.62000, 0.32000
120, 1594829050.221185, 1199.67969, 0000, 0.71832, 0.02191, -0.69501, -0.02289, -0.210000, -0.040000, -0.100000, 9.78000, 0.62000, 0.32000
121, 1594829050.2312174, 1209.6875, 0000, 0.71832, 0.02191, -0.69501, -0.02289, -0.180000, -0.020000, -0.130000, 9.78000, 0.62000, 0.32000
122, 1594829050.2411542, 1219.67969, 0000, 0.71832, 0.02179, -0.69495, -0.02295, -0.180000, 0.010000, -0.100000, 9.78000, 0.62000, 0.32000
123, 1594829050.2510958, 1229.67969, 0000, 0.71832, 0.02167, -0.69495, -0.02307, -0.190000, -0.060000, -0.110000, 9.78000, 0.62000, 0.32000
124, 1594829050.2619271, 1239.86719, 0000, 0.71832, 0.02155, -0.69495, -0.02325, -0.220000, -0.180000, -0.150000, 9.78000, 0.62000, 0.32000
125, 1594829050.27109, 1249.67969, 0000, 0.71832, 0.02136, -0.69495, -0.02344, -0.250000, -0.250000, -0.130000, 9.78000, 0.62000, 0.32000
126, 1594829050.2810638, 1259.69531, 0000, 0.71832, 0.02118, -0.69501, -0.02344, -0.250000, -0.270000, -0.080000, 9.78000, 0.61000, 0.32000
127, 1594829050.2918508, 1269.6875, 0000, 0.71832, 0.02112, -0.69501, -0.02338, -0.270000, -0.250000, -0.030000, 9.78000, 0.61000, 0.32000
128, 1594829050.3018215, 1279.67969, 0000, 0.71832, 0.02112, -0.69501, -0.02325, -0.320000, -0.240000, -0.020000, 9.78000, 0.61000, 0.32000
129, 1594829050.311967, 1289.79688, 0000, 0.71826, 0.02118, -0.69507, -0.02313, -0.310000, -0.220000, -0.050000, 9.78000, 0.61000, 0.32000
130, 1594829050.3207703, 1299.6875, 0000, 0.71826, 0.02124, -0.69507, -0.02295, -0.290000, -0.180000, -0.060000, 9.78000, 0.61000, 0.32000
131, 1594829050.3307443, 1309.6875, 0000, 0.71826, 0.02142, -0.69507, -0.02277, -0.180000, -0.070000, -0.090000, 9.78000, 0.61000, 0.32000
132, 1594829050.3528461, 1319.67969, 0000, 0.71826, 0.02167, -0.69513, -0.02252, -0.170000, 0.000000, -0.090000, 9.78000, 0.61000, 0.32000
133, 1594829050.3528461, 1329.67969, 0000, 0.71820, 0.02197, -0.69513, -0.02222, -0.200000, 0.100000, -0.120000, 9.78000, 0.61000, 0.32000
134, 1594829050.3617303, 1340.28125, 0000, 0.71826, 0.02222, -0.69507, -0.02197, -0.240000, 0.180000, -0.140000, 9.78000, 0.61000, 0.32000
135, 1594829050.3726387, 1350.22657, 0000, 0.71832, 0.02234, -0.69501, -0.02185, -0.290000, 0.140000, -0.120000, 9.78000, 0.61000, 0.32000
136, 1594829050.381617, 1359.6875, 0000, 0.71832, 0.02240, -0.69501, -0.02179, -0.300000, 0.100000, -0.100000, 9.78000, 0.61000, 0.32000
137, 1594829050.390938, 1369.67969, 0000, 0.71832, 0.02240, -0.69501, -0.02179, -0.300000, 0.050000, -0.110000, 9.78000, 0.61000, 0.32000
138, 1594829050.4008975, 1379.67969, 0000, 0.71832, 0.02240, -0.69501, -0.02179, -0.270000, -0.010000, -0.100000, 9.78000, 0.61000, 0.32000
139, 1594829050.4175375, 1395.84375, 0000, 0.71832, 0.02240, -0.69501, -0.02191, -0.220000, -0.100000, -0.110000, 9.78000, 0.61000, 0.32000
140, 1594829050.4216075, 1401.0625, 0000, 0.71832, 0.02246, -0.69501, -0.02197, -0.170000, -0.070000, -0.100000, 9.78000, 0.61000, 0.32000
141, 1594829050.4316463, 1409.69531, 0000, 0.71826, 0.02252, -0.69507, -0.02203, -0.170000, -0.060000, -0.110000, 9.78000, 0.61000, 0.32000
142, 1594829050.4407184, 1419.6875, 0000, 0.71826, 0.02252, -0.69507, -0.02203, -0.160000, -0.030000, -0.090000, 9.78000, 0.61000, 0.32000
